 LCModel (Version 6.3-1H) Copyright: S.W. Provencher.          Ref.: Magn. Reson. Med. 30:672-679 (1993).                
 phi20fid_asc
 Data of: CRC MIRcen, CEA / INSERM, Fontenay-aux-Roses, France
 14-October-2019  15:31
 25 lines in following concentration table = NCONC+1
    Conc.  %SD /Cr+PCr  Metabolite                                         
    0.000 999%   0.000 Ace                                                 
 2.72E+03   8%   0.483 Ala                                                 
 8.32E+03   8%   1.481 Asp                                                 
  593.888  10%   0.106+Cho                                                 
 4.89E+03  14%   0.869 Cr                                                  
 1.06E+04   3%   1.893 GABA                                                
 1.47E+04   5%   2.621 Glc                                                 
 2.11E+04   3%   3.758 Gln                                                 
 4.84E+04   1%   8.607+Glu                                                 
 1.03E+04   1%   1.838 GPC                                                 
 5.87E+04   1%  10.448 Ins                                                 
    0.000 999%   0.000 sIns                                                
 1.38E+04   2%   2.449 Lac                                                 
 5.40E+04   1%   9.611 NAA                                                 
 3.02E+03   8%   0.538 NAAG                                                
 5.16E+03   1%   0.919 PCho                                                
 4.01E+04   2%   7.131 PCr                                                 
 3.93E+04   1%   6.989 Tau                                                 
  154.167   2% 2.7E-02 MM_DDE                                              
 1.59E+04   3%   2.828 -CrCH2                                              
 5.71E+04   1%  10.148 NAA+NAAG                                            
 6.95E+04   1%  12.365 Glu+Gln                                             
 1.61E+04   1%   2.862 GPC+PCho+Cho                                        
 4.50E+04   1%   8.000 Cr+PCr                                              
   6 lines in following misc. output table
  FWHM = 0.026 ppm    S/N =  32                                            
  Data shift = 0.039 ppm                                                   
  Ph:   8 deg       0.0 deg/ppm                                            
  alphaB,S = 1.7E+00,   4.0E-01                                            
   10 spline knots.   Ns = 8(3)                                            
   5 inflections.     3 extrema                                            
 3198 points on ppm-axis = NY
      4.300000     4.298780     4.297561     4.296341     4.295121     4.293901     4.292682     4.291462     4.290242     4.289022
      4.287803     4.286583     4.285363     4.284143     4.282924     4.281704     4.280484     4.279264     4.278045     4.276825
      4.275605     4.274385     4.273166     4.271946     4.270726     4.269506     4.268287     4.267067     4.265847     4.264627
      4.263408     4.262188     4.260968     4.259748     4.258529     4.257309     4.256089     4.254869     4.253650     4.252430
      4.251210     4.249990     4.248771     4.247551     4.246331     4.245111     4.243892     4.242672     4.241452     4.240232
      4.239013     4.237793     4.236573     4.235353     4.234134     4.232914     4.231694     4.230474     4.229255     4.228035
      4.226815     4.225595     4.224376     4.223156     4.221936     4.220716     4.219497     4.218277     4.217057     4.215837
      4.214618     4.213398     4.212178     4.210958     4.209739     4.208519     4.207299     4.206079     4.204860     4.203640
      4.202420     4.201200     4.199981     4.198761     4.197541     4.196321     4.195102     4.193882     4.192662     4.191442
      4.190223     4.189003     4.187783     4.186563     4.185344     4.184124     4.182904     4.181684     4.180465     4.179245
      4.178025     4.176805     4.175586     4.174366     4.173146     4.171926     4.170707     4.169487     4.168267     4.167048
      4.165828     4.164608     4.163388     4.162169     4.160949     4.159729     4.158509     4.157290     4.156070     4.154850
      4.153630     4.152411     4.151191     4.149971     4.148751     4.147532     4.146312     4.145092     4.143872     4.142653
      4.141433     4.140213     4.138993     4.137774     4.136554     4.135334     4.134114     4.132895     4.131675     4.130455
      4.129235     4.128016     4.126796     4.125576     4.124356     4.123137     4.121917     4.120697     4.119477     4.118258
      4.117038     4.115818     4.114598     4.113379     4.112159     4.110939     4.109719     4.108500     4.107280     4.106060
      4.104840     4.103621     4.102401     4.101181     4.099961     4.098742     4.097522     4.096302     4.095082     4.093863
      4.092643     4.091423     4.090203     4.088984     4.087764     4.086544     4.085324     4.084105     4.082885     4.081665
      4.080445     4.079226     4.078006     4.076786     4.075566     4.074347     4.073127     4.071907     4.070687     4.069468
      4.068248     4.067028     4.065808     4.064589     4.063369     4.062149     4.060929     4.059710     4.058490     4.057270
      4.056050     4.054831     4.053611     4.052391     4.051171     4.049952     4.048732     4.047512     4.046292     4.045073
      4.043853     4.042633     4.041413     4.040194     4.038974     4.037754     4.036534     4.035315     4.034095     4.032875
      4.031655     4.030436     4.029216     4.027996     4.026776     4.025557     4.024337     4.023117     4.021897     4.020678
      4.019458     4.018238     4.017018     4.015799     4.014579     4.013359     4.012139     4.010920     4.009700     4.008480
      4.007260     4.006041     4.004821     4.003601     4.002381     4.001162     3.999942     3.998722     3.997502     3.996282
      3.995062     3.993842     3.992622     3.991402     3.990182     3.988962     3.987742     3.986522     3.985302     3.984082
      3.982862     3.981642     3.980422     3.979202     3.977982     3.976762     3.975542     3.974322     3.973102     3.971882
      3.970662     3.969442     3.968222     3.967002     3.965782     3.964562     3.963342     3.962122     3.960902     3.959682
      3.958462     3.957242     3.956022     3.954802     3.953582     3.952362     3.951142     3.949922     3.948702     3.947482
      3.946262     3.945042     3.943822     3.942602     3.941382     3.940162     3.938942     3.937722     3.936502     3.935282
      3.934062     3.932842     3.931622     3.930402     3.929182     3.927962     3.926742     3.925522     3.924302     3.923082
      3.921862     3.920642     3.919422     3.918202     3.916982     3.915762     3.914542     3.913322     3.912102     3.910882
      3.909662     3.908442     3.907223     3.906003     3.904783     3.903563     3.902343     3.901123     3.899903     3.898683
      3.897463     3.896243     3.895023     3.893803     3.892583     3.891363     3.890143     3.888923     3.887703     3.886483
      3.885263     3.884043     3.882823     3.881603     3.880383     3.879163     3.877943     3.876723     3.875503     3.874283
      3.873063     3.871843     3.870623     3.869403     3.868183     3.866963     3.865743     3.864523     3.863303     3.862083
      3.860863     3.859643     3.858423     3.857203     3.855983     3.854763     3.853543     3.852323     3.851103     3.849883
      3.848663     3.847443     3.846223     3.845003     3.843783     3.842563     3.841343     3.840123     3.838903     3.837683
      3.836463     3.835243     3.834023     3.832803     3.831583     3.830363     3.829143     3.827923     3.826703     3.825483
      3.824263     3.823043     3.821823     3.820603     3.819383     3.818163     3.816943     3.815723     3.814503     3.813283
      3.812063     3.810843     3.809623     3.808403     3.807184     3.805964     3.804744     3.803524     3.802304     3.801084
      3.799864     3.798644     3.797424     3.796204     3.794984     3.793764     3.792544     3.791324     3.790104     3.788884
      3.787664     3.786444     3.785224     3.784004     3.782784     3.781564     3.780344     3.779124     3.777904     3.776684
      3.775464     3.774244     3.773024     3.771804     3.770584     3.769364     3.768144     3.766924     3.765704     3.764484
      3.763264     3.762044     3.760824     3.759604     3.758384     3.757164     3.755944     3.754724     3.753504     3.752284
      3.751064     3.749844     3.748624     3.747404     3.746184     3.744964     3.743744     3.742524     3.741304     3.740084
      3.738864     3.737644     3.736424     3.735204     3.733984     3.732764     3.731544     3.730324     3.729104     3.727884
      3.726664     3.725444     3.724224     3.723004     3.721784     3.720564     3.719344     3.718124     3.716904     3.715684
      3.714464     3.713244     3.712024     3.710804     3.709584     3.708364     3.707144     3.705925     3.704705     3.703485
      3.702265     3.701045     3.699825     3.698605     3.697385     3.696165     3.694945     3.693725     3.692505     3.691285
      3.690065     3.688845     3.687625     3.686405     3.685185     3.683965     3.682745     3.681525     3.680305     3.679085
      3.677865     3.676645     3.675425     3.674205     3.672985     3.671765     3.670545     3.669325     3.668105     3.666885
      3.665665     3.664445     3.663225     3.662005     3.660785     3.659565     3.658345     3.657125     3.655905     3.654685
      3.653465     3.652245     3.651025     3.649805     3.648585     3.647365     3.646145     3.644925     3.643705     3.642485
      3.641265     3.640045     3.638825     3.637605     3.636385     3.635165     3.633945     3.632725     3.631505     3.630285
      3.629065     3.627845     3.626625     3.625405     3.624185     3.622965     3.621745     3.620525     3.619305     3.618085
      3.616865     3.615645     3.614425     3.613205     3.611985     3.610765     3.609545     3.608325     3.607105     3.605886
      3.604666     3.603446     3.602226     3.601006     3.599786     3.598566     3.597346     3.596126     3.594906     3.593686
      3.592466     3.591246     3.590026     3.588806     3.587586     3.586366     3.585146     3.583926     3.582706     3.581486
      3.580266     3.579046     3.577826     3.576606     3.575386     3.574166     3.572946     3.571726     3.570506     3.569286
      3.568066     3.566846     3.565626     3.564406     3.563186     3.561966     3.560746     3.559526     3.558306     3.557086
      3.555866     3.554646     3.553426     3.552206     3.550986     3.549766     3.548546     3.547326     3.546106     3.544886
      3.543666     3.542446     3.541226     3.540006     3.538786     3.537566     3.536346     3.535126     3.533906     3.532686
      3.531466     3.530246     3.529026     3.527806     3.526586     3.525366     3.524146     3.522926     3.521706     3.520486
      3.519266     3.518046     3.516826     3.515606     3.514386     3.513166     3.511946     3.510726     3.509506     3.508286
      3.507066     3.505847     3.504627     3.503407     3.502187     3.500967     3.499747     3.498527     3.497307     3.496087
      3.494867     3.493647     3.492427     3.491207     3.489987     3.488767     3.487547     3.486327     3.485107     3.483887
      3.482667     3.481447     3.480227     3.479007     3.477787     3.476567     3.475347     3.474127     3.472907     3.471687
      3.470467     3.469247     3.468027     3.466807     3.465587     3.464367     3.463147     3.461927     3.460707     3.459487
      3.458267     3.457047     3.455827     3.454607     3.453387     3.452167     3.450947     3.449727     3.448507     3.447287
      3.446067     3.444847     3.443627     3.442407     3.441187     3.439967     3.438747     3.437527     3.436307     3.435087
      3.433867     3.432647     3.431427     3.430207     3.428987     3.427767     3.426547     3.425327     3.424107     3.422887
      3.421667     3.420447     3.419227     3.418007     3.416787     3.415567     3.414347     3.413127     3.411907     3.410687
      3.409467     3.408247     3.407027     3.405807     3.404588     3.403368     3.402148     3.400928     3.399708     3.398488
      3.397268     3.396048     3.394828     3.393608     3.392388     3.391168     3.389948     3.388728     3.387508     3.386288
      3.385068     3.383848     3.382628     3.381408     3.380188     3.378968     3.377748     3.376528     3.375308     3.374088
      3.372868     3.371648     3.370428     3.369208     3.367988     3.366768     3.365548     3.364328     3.363108     3.361888
      3.360668     3.359448     3.358228     3.357008     3.355788     3.354568     3.353348     3.352128     3.350908     3.349688
      3.348468     3.347248     3.346028     3.344808     3.343588     3.342368     3.341148     3.339928     3.338708     3.337488
      3.336268     3.335048     3.333828     3.332608     3.331388     3.330168     3.328948     3.327728     3.326508     3.325288
      3.324068     3.322848     3.321628     3.320408     3.319188     3.317968     3.316748     3.315528     3.314308     3.313088
      3.311868     3.310648     3.309428     3.308208     3.306988     3.305768     3.304549     3.303329     3.302109     3.300889
      3.299669     3.298449     3.297229     3.296009     3.294789     3.293569     3.292349     3.291129     3.289909     3.288689
      3.287469     3.286249     3.285029     3.283809     3.282589     3.281369     3.280149     3.278929     3.277709     3.276489
      3.275269     3.274049     3.272829     3.271609     3.270389     3.269169     3.267949     3.266729     3.265509     3.264289
      3.263069     3.261849     3.260629     3.259409     3.258189     3.256969     3.255749     3.254529     3.253309     3.252089
      3.250869     3.249649     3.248429     3.247209     3.245989     3.244769     3.243549     3.242329     3.241109     3.239889
      3.238669     3.237449     3.236229     3.235009     3.233789     3.232569     3.231349     3.230129     3.228909     3.227689
      3.226469     3.225249     3.224029     3.222809     3.221589     3.220369     3.219149     3.217929     3.216709     3.215489
      3.214269     3.213049     3.211829     3.210609     3.209389     3.208169     3.206949     3.205729     3.204509     3.203290
      3.202070     3.200850     3.199630     3.198410     3.197190     3.195970     3.194750     3.193530     3.192310     3.191090
      3.189870     3.188650     3.187430     3.186210     3.184990     3.183770     3.182550     3.181330     3.180110     3.178890
      3.177670     3.176450     3.175230     3.174010     3.172790     3.171570     3.170350     3.169130     3.167910     3.166690
      3.165470     3.164250     3.163030     3.161810     3.160590     3.159370     3.158150     3.156930     3.155710     3.154490
      3.153270     3.152050     3.150830     3.149610     3.148390     3.147170     3.145950     3.144730     3.143510     3.142290
      3.141070     3.139850     3.138630     3.137410     3.136190     3.134970     3.133750     3.132530     3.131310     3.130090
      3.128870     3.127650     3.126430     3.125210     3.123990     3.122770     3.121550     3.120330     3.119110     3.117890
      3.116670     3.115450     3.114230     3.113010     3.111790     3.110570     3.109350     3.108130     3.106910     3.105690
      3.104470     3.103251     3.102031     3.100811     3.099591     3.098371     3.097151     3.095931     3.094711     3.093491
      3.092271     3.091051     3.089831     3.088611     3.087391     3.086171     3.084951     3.083731     3.082511     3.081291
      3.080071     3.078851     3.077631     3.076411     3.075191     3.073971     3.072751     3.071531     3.070311     3.069091
      3.067871     3.066651     3.065431     3.064211     3.062991     3.061771     3.060551     3.059331     3.058111     3.056891
      3.055671     3.054451     3.053231     3.052011     3.050791     3.049571     3.048351     3.047131     3.045911     3.044691
      3.043471     3.042251     3.041031     3.039811     3.038591     3.037371     3.036151     3.034931     3.033711     3.032491
      3.031271     3.030051     3.028831     3.027611     3.026391     3.025171     3.023951     3.022731     3.021511     3.020291
      3.019071     3.017851     3.016631     3.015411     3.014191     3.012971     3.011751     3.010531     3.009311     3.008091
      3.006871     3.005651     3.004431     3.003211     3.001992     3.000772     2.999552     2.998332     2.997112     2.995892
      2.994672     2.993452     2.992232     2.991012     2.989792     2.988572     2.987352     2.986132     2.984912     2.983692
      2.982472     2.981252     2.980032     2.978812     2.977592     2.976372     2.975152     2.973932     2.972712     2.971492
      2.970272     2.969052     2.967832     2.966612     2.965392     2.964172     2.962952     2.961732     2.960512     2.959292
      2.958072     2.956852     2.955632     2.954412     2.953192     2.951972     2.950752     2.949532     2.948312     2.947092
      2.945872     2.944652     2.943432     2.942212     2.940992     2.939772     2.938552     2.937332     2.936112     2.934892
      2.933672     2.932452     2.931232     2.930012     2.928792     2.927572     2.926352     2.925132     2.923912     2.922692
      2.921472     2.920252     2.919032     2.917812     2.916592     2.915372     2.914152     2.912932     2.911712     2.910492
      2.909272     2.908052     2.906832     2.905612     2.904392     2.903172     2.901953     2.900733     2.899513     2.898293
      2.897073     2.895853     2.894633     2.893413     2.892193     2.890973     2.889753     2.888533     2.887313     2.886093
      2.884873     2.883653     2.882433     2.881213     2.879993     2.878773     2.877553     2.876333     2.875113     2.873893
      2.872673     2.871453     2.870233     2.869013     2.867793     2.866573     2.865353     2.864133     2.862913     2.861693
      2.860473     2.859253     2.858033     2.856813     2.855593     2.854373     2.853153     2.851933     2.850713     2.849493
      2.848273     2.847053     2.845833     2.844613     2.843393     2.842173     2.840953     2.839733     2.838513     2.837293
      2.836073     2.834853     2.833633     2.832413     2.831193     2.829973     2.828753     2.827533     2.826313     2.825093
      2.823873     2.822653     2.821433     2.820213     2.818993     2.817773     2.816553     2.815333     2.814113     2.812893
      2.811673     2.810453     2.809233     2.808013     2.806793     2.805573     2.804353     2.803133     2.801913     2.800694
      2.799474     2.798254     2.797034     2.795814     2.794594     2.793374     2.792154     2.790934     2.789714     2.788494
      2.787274     2.786054     2.784834     2.783614     2.782394     2.781174     2.779954     2.778734     2.777514     2.776294
      2.775074     2.773854     2.772634     2.771414     2.770194     2.768974     2.767754     2.766534     2.765314     2.764094
      2.762874     2.761654     2.760434     2.759214     2.757994     2.756774     2.755554     2.754334     2.753114     2.751894
      2.750674     2.749454     2.748234     2.747014     2.745794     2.744574     2.743354     2.742134     2.740914     2.739694
      2.738474     2.737254     2.736034     2.734814     2.733594     2.732374     2.731154     2.729934     2.728714     2.727494
      2.726274     2.725054     2.723834     2.722614     2.721394     2.720174     2.718954     2.717734     2.716514     2.715294
      2.714074     2.712854     2.711634     2.710414     2.709194     2.707974     2.706754     2.705534     2.704314     2.703094
      2.701874     2.700655     2.699435     2.698215     2.696995     2.695775     2.694555     2.693335     2.692115     2.690895
      2.689675     2.688455     2.687235     2.686015     2.684795     2.683575     2.682355     2.681135     2.679915     2.678695
      2.677475     2.676255     2.675035     2.673815     2.672595     2.671375     2.670155     2.668935     2.667715     2.666495
      2.665275     2.664055     2.662835     2.661615     2.660395     2.659175     2.657955     2.656735     2.655515     2.654295
      2.653075     2.651855     2.650635     2.649415     2.648195     2.646975     2.645755     2.644535     2.643315     2.642095
      2.640875     2.639655     2.638435     2.637215     2.635995     2.634775     2.633555     2.632335     2.631115     2.629895
      2.628675     2.627455     2.626235     2.625015     2.623795     2.622575     2.621355     2.620135     2.618915     2.617695
      2.616475     2.615255     2.614035     2.612815     2.611595     2.610375     2.609155     2.607935     2.606715     2.605495
      2.604275     2.603055     2.601835     2.600616     2.599396     2.598176     2.596956     2.595736     2.594516     2.593296
      2.592076     2.590856     2.589636     2.588416     2.587196     2.585976     2.584756     2.583536     2.582316     2.581096
      2.579876     2.578656     2.577436     2.576216     2.574996     2.573776     2.572556     2.571336     2.570116     2.568896
      2.567676     2.566456     2.565236     2.564016     2.562796     2.561576     2.560356     2.559136     2.557916     2.556696
      2.555476     2.554256     2.553036     2.551816     2.550596     2.549376     2.548156     2.546936     2.545716     2.544496
      2.543276     2.542056     2.540836     2.539616     2.538396     2.537176     2.535956     2.534736     2.533516     2.532296
      2.531076     2.529856     2.528636     2.527416     2.526196     2.524976     2.523756     2.522536     2.521316     2.520096
      2.518876     2.517656     2.516436     2.515216     2.513996     2.512776     2.511556     2.510336     2.509116     2.507896
      2.506676     2.505456     2.504236     2.503016     2.501796     2.500576     2.499357     2.498137     2.496917     2.495697
      2.494477     2.493257     2.492037     2.490817     2.489597     2.488377     2.487157     2.485937     2.484717     2.483497
      2.482277     2.481057     2.479837     2.478617     2.477397     2.476177     2.474957     2.473737     2.472517     2.471297
      2.470077     2.468857     2.467637     2.466417     2.465197     2.463977     2.462757     2.461537     2.460317     2.459097
      2.457877     2.456657     2.455437     2.454217     2.452997     2.451777     2.450557     2.449337     2.448117     2.446897
      2.445677     2.444457     2.443237     2.442017     2.440797     2.439577     2.438357     2.437137     2.435917     2.434697
      2.433477     2.432257     2.431037     2.429817     2.428597     2.427377     2.426157     2.424937     2.423717     2.422497
      2.421277     2.420057     2.418837     2.417617     2.416397     2.415177     2.413957     2.412737     2.411517     2.410297
      2.409077     2.407857     2.406637     2.405417     2.404197     2.402977     2.401757     2.400537     2.399318     2.398098
      2.396878     2.395658     2.394438     2.393218     2.391998     2.390778     2.389558     2.388338     2.387118     2.385898
      2.384678     2.383458     2.382238     2.381018     2.379798     2.378578     2.377358     2.376138     2.374918     2.373698
      2.372478     2.371258     2.370038     2.368818     2.367598     2.366378     2.365158     2.363938     2.362718     2.361498
      2.360278     2.359058     2.357838     2.356618     2.355398     2.354178     2.352958     2.351738     2.350518     2.349298
      2.348078     2.346858     2.345638     2.344418     2.343198     2.341978     2.340758     2.339538     2.338318     2.337098
      2.335878     2.334658     2.333438     2.332218     2.330998     2.329778     2.328558     2.327338     2.326118     2.324898
      2.323678     2.322458     2.321238     2.320018     2.318798     2.317578     2.316358     2.315138     2.313918     2.312698
      2.311478     2.310258     2.309038     2.307818     2.306598     2.305378     2.304158     2.302938     2.301718     2.300498
      2.299278     2.298059     2.296839     2.295619     2.294399     2.293179     2.291959     2.290739     2.289519     2.288299
      2.287079     2.285859     2.284639     2.283419     2.282199     2.280979     2.279759     2.278539     2.277319     2.276099
      2.274879     2.273659     2.272439     2.271219     2.269999     2.268779     2.267559     2.266339     2.265119     2.263899
      2.262679     2.261459     2.260239     2.259019     2.257799     2.256579     2.255359     2.254139     2.252919     2.251699
      2.250479     2.249259     2.248039     2.246819     2.245599     2.244379     2.243159     2.241939     2.240719     2.239499
      2.238279     2.237059     2.235839     2.234619     2.233399     2.232179     2.230959     2.229739     2.228519     2.227299
      2.226079     2.224859     2.223639     2.222419     2.221199     2.219979     2.218759     2.217539     2.216319     2.215099
      2.213879     2.212659     2.211439     2.210219     2.208999     2.207779     2.206559     2.205339     2.204119     2.202899
      2.201679     2.200459     2.199239     2.198020     2.196800     2.195580     2.194360     2.193140     2.191920     2.190700
      2.189480     2.188260     2.187040     2.185820     2.184600     2.183380     2.182160     2.180940     2.179720     2.178500
      2.177280     2.176060     2.174840     2.173620     2.172400     2.171180     2.169960     2.168740     2.167520     2.166300
      2.165080     2.163860     2.162640     2.161420     2.160200     2.158980     2.157760     2.156540     2.155320     2.154100
      2.152880     2.151660     2.150440     2.149220     2.148000     2.146780     2.145560     2.144340     2.143120     2.141900
      2.140680     2.139460     2.138240     2.137020     2.135800     2.134580     2.133360     2.132140     2.130920     2.129700
      2.128480     2.127260     2.126040     2.124820     2.123600     2.122380     2.121160     2.119940     2.118720     2.117500
      2.116280     2.115060     2.113840     2.112620     2.111400     2.110180     2.108960     2.107740     2.106520     2.105300
      2.104080     2.102860     2.101640     2.100420     2.099200     2.097980     2.096761     2.095541     2.094321     2.093101
      2.091881     2.090661     2.089441     2.088221     2.087001     2.085781     2.084561     2.083341     2.082121     2.080901
      2.079681     2.078461     2.077241     2.076021     2.074801     2.073581     2.072361     2.071141     2.069921     2.068701
      2.067481     2.066261     2.065041     2.063821     2.062601     2.061381     2.060161     2.058941     2.057721     2.056501
      2.055281     2.054061     2.052841     2.051621     2.050401     2.049181     2.047961     2.046741     2.045521     2.044301
      2.043081     2.041861     2.040641     2.039421     2.038201     2.036981     2.035761     2.034541     2.033321     2.032101
      2.030881     2.029661     2.028441     2.027221     2.026001     2.024781     2.023561     2.022341     2.021121     2.019901
      2.018681     2.017461     2.016241     2.015021     2.013801     2.012581     2.011361     2.010141     2.008921     2.007701
      2.006481     2.005261     2.004041     2.002821     2.001601     2.000381     1.999161     1.997941     1.996722     1.995502
      1.994282     1.993062     1.991842     1.990622     1.989402     1.988182     1.986962     1.985742     1.984522     1.983302
      1.982082     1.980862     1.979642     1.978422     1.977202     1.975982     1.974762     1.973542     1.972322     1.971102
      1.969882     1.968662     1.967442     1.966222     1.965002     1.963782     1.962562     1.961342     1.960122     1.958902
      1.957682     1.956462     1.955242     1.954022     1.952802     1.951582     1.950362     1.949142     1.947922     1.946702
      1.945482     1.944262     1.943042     1.941822     1.940602     1.939382     1.938162     1.936942     1.935722     1.934502
      1.933282     1.932062     1.930842     1.929622     1.928402     1.927182     1.925962     1.924742     1.923522     1.922302
      1.921082     1.919862     1.918642     1.917422     1.916202     1.914982     1.913762     1.912542     1.911322     1.910102
      1.908882     1.907662     1.906442     1.905222     1.904002     1.902782     1.901562     1.900342     1.899122     1.897902
      1.896683     1.895463     1.894243     1.893023     1.891803     1.890583     1.889363     1.888143     1.886923     1.885703
      1.884483     1.883263     1.882043     1.880823     1.879603     1.878383     1.877163     1.875943     1.874723     1.873503
      1.872283     1.871063     1.869843     1.868623     1.867403     1.866183     1.864963     1.863743     1.862523     1.861303
      1.860083     1.858863     1.857643     1.856423     1.855203     1.853983     1.852763     1.851543     1.850323     1.849103
      1.847883     1.846663     1.845443     1.844223     1.843003     1.841783     1.840563     1.839343     1.838123     1.836903
      1.835683     1.834463     1.833243     1.832023     1.830803     1.829583     1.828363     1.827143     1.825923     1.824703
      1.823483     1.822263     1.821043     1.819823     1.818603     1.817383     1.816163     1.814943     1.813723     1.812503
      1.811283     1.810063     1.808843     1.807623     1.806403     1.805183     1.803963     1.802743     1.801523     1.800303
      1.799083     1.797863     1.796643     1.795424     1.794204     1.792984     1.791764     1.790544     1.789324     1.788104
